time[s],volume[cm3]
0.000000000000000000e+00,8.781982450870485764e+02
1.000000000000000048e-04,8.769741170990284900e+02
2.000000000000000096e-04,8.757376864201964963e+02
3.000000000000000279e-04,8.744888294064541014e+02
4.000000000000000192e-04,8.732274211710595182e+02
5.000000000000000104e-04,8.719533355721378030e+02
6.000000000000000559e-04,8.706664452000674146e+02
6.999999999999999929e-04,8.693666213647386485e+02
8.000000000000000383e-04,8.680537340826848549e+02
9.000000000000000838e-04,8.667276520640837134e+02
1.000000000000000021e-03,8.653882426996284494e+02
1.100000000000000066e-03,8.640353720472662644e+02
1.200000000000000112e-03,8.626689048188045490e+02
1.300000000000000157e-03,8.612887043663816939e+02
1.399999999999999986e-03,8.598946326688023873e+02
1.500000000000000031e-03,8.584865503177351229e+02
1.600000000000000077e-03,8.570643165037713516e+02
1.700000000000000122e-03,8.556277890023444570e+02
1.800000000000000168e-03,8.541768241595073050e+02
1.899999999999999996e-03,8.527112768775663199e+02
2.000000000000000042e-03,8.512310006005720879e+02
2.100000000000000304e-03,8.497358472996633054e+02
2.200000000000000133e-03,8.482256674582639562e+02
2.299999999999999961e-03,8.467003100571315599e+02
2.400000000000000223e-03,8.451596225592545579e+02
2.500000000000000052e-03,8.436034508945994048e+02
2.600000000000000314e-03,8.420316394447028188e+02
2.700000000000000143e-03,8.404440310271099861e+02
2.799999999999999972e-03,8.388404668796561054e+02
2.900000000000000234e-03,8.372207866445901345e+02
3.000000000000000062e-03,8.355848283525388069e+02
3.100000000000000325e-03,8.339324284063096684e+02
3.200000000000000153e-03,8.322634215645310860e+02
3.299999999999999982e-03,8.305776409251279802e+02
3.400000000000000244e-03,8.288749179086315735e+02
3.500000000000000073e-03,8.271550822413213382e+02
3.600000000000000335e-03,8.254179619381973225e+02
3.700000000000000164e-03,8.236633832857816060e+02
3.799999999999999992e-03,8.218911708247468368e+02
3.900000000000000255e-03,8.201011473323699192e+02
4.000000000000000083e-03,8.182931338048101679e+02
4.100000000000000346e-03,8.164669494392078377e+02
4.200000000000000608e-03,8.146224116156048467e+02
4.300000000000000003e-03,8.127593358786815543e+02
4.400000000000000265e-03,8.108775359193117538e+02
4.500000000000000527e-03,8.089768235559312188e+02
4.599999999999999922e-03,8.070570087157198031e+02
4.700000000000000185e-03,8.051178994155936834e+02
4.800000000000000447e-03,8.031593017430067221e+02
4.899999999999999842e-03,8.011810198365596989e+02
5.000000000000000104e-03,7.991828558664130924e+02
5.100000000000000366e-03,7.971646100145051150e+02
5.200000000000000629e-03,7.951260804545685232e+02
5.300000000000000024e-03,7.930670633319485887e+02
5.400000000000000286e-03,7.909873527432171159e+02
5.500000000000000548e-03,7.888867407155821638e+02
5.599999999999999943e-03,7.867650171860905175e+02
5.700000000000000205e-03,7.846219699806209746e+02
5.800000000000000468e-03,7.824573847926671988e+02
5.899999999999999863e-03,7.802710451619066134e+02
6.000000000000000125e-03,7.780627324525542008e+02
6.100000000000000387e-03,7.758322258314987039e+02
6.200000000000000649e-03,7.735793022462190720e+02
6.300000000000000044e-03,7.713037364024797853e+02
6.400000000000000307e-03,7.690053007417997151e+02
6.500000000000000569e-03,7.666837654186977034e+02
6.599999999999999964e-03,7.643388982777066758e+02
6.700000000000000226e-03,7.619704648301584484e+02
6.800000000000000488e-03,7.595782282307345668e+02
6.900000000000000751e-03,7.571619492537818132e+02
7.000000000000000146e-03,7.547213862693886313e+02
7.100000000000000408e-03,7.522562952192229204e+02
7.200000000000000670e-03,7.497664295921252915e+02
7.300000000000000065e-03,7.472515403994582357e+02
7.400000000000000328e-03,7.447113761502066609e+02
7.500000000000000590e-03,7.421456828258287715e+02
7.599999999999999985e-03,7.395542038548543360e+02
7.700000000000000247e-03,7.369366800872265912e+02
7.800000000000000509e-03,7.342928497683872138e+02
7.900000000000000772e-03,7.316224485131012898e+02
8.000000000000000167e-03,7.289252092790180768e+02
8.099999999999999561e-03,7.262008623399664202e+02
8.200000000000000691e-03,7.234491352589817552e+02
8.300000000000000086e-03,7.206697528610634436e+02
8.400000000000001216e-03,7.178624372056552829e+02
8.500000000000000611e-03,7.150269075588520309e+02
8.600000000000000006e-03,7.121628803653266004e+02
8.700000000000001135e-03,7.092700692199722425e+02
8.800000000000000530e-03,7.063481848392644906e+02
8.899999999999999925e-03,7.033969350323299068e+02
9.000000000000001055e-03,7.004160246717283371e+02
9.100000000000000450e-03,6.974051556639400360e+02
9.199999999999999845e-03,6.943640269195548171e+02
9.300000000000000974e-03,6.912923343231640274e+02
9.400000000000000369e-03,6.881897707029482945e+02
9.499999999999999764e-03,6.850560257999602527e+02
9.600000000000000894e-03,6.818907862370977000e+02
9.700000000000000289e-03,6.786937354877672988e+02
9.799999999999999684e-03,6.754645538442296129e+02
9.900000000000000813e-03,6.722029183856290047e+02
1.000000000000000021e-02,6.689085029457019118e+02
1.010000000000000134e-02,6.655809780801587294e+02
1.020000000000000073e-02,6.622200110337404340e+02
1.030000000000000013e-02,6.588252657069410816e+02
1.040000000000000126e-02,6.553964026223990231e+02
1.050000000000000065e-02,6.519330788909488774e+02
1.060000000000000005e-02,6.484349481773309662e+02
1.070000000000000118e-02,6.449016606655588930e+02
1.080000000000000057e-02,6.413328630239371932e+02
1.089999999999999997e-02,6.377281983697275791e+02
1.100000000000000110e-02,6.340873062334608221e+02
1.110000000000000049e-02,6.304098225228890442e+02
1.119999999999999989e-02,6.266953794865768259e+02
1.130000000000000102e-02,6.229436056771248786e+02
1.140000000000000041e-02,6.191541259140260536e+02
1.149999999999999981e-02,6.153265612461460705e+02
1.160000000000000094e-02,6.114605289138281705e+02
1.170000000000000033e-02,6.075556423106179409e+02
1.179999999999999973e-02,6.036115109446006954e+02
1.190000000000000085e-02,5.996277403993530015e+02
1.200000000000000025e-02,5.956039322945006234e+02
1.210000000000000138e-02,5.915396842458796982e+02
1.220000000000000077e-02,5.874345898252988718e+02
1.230000000000000017e-02,5.832882385198947759e+02
1.240000000000000130e-02,5.791002156910816439e+02
1.250000000000000069e-02,5.748701025330866514e+02
1.260000000000000009e-02,5.705974760310690499e+02
1.270000000000000122e-02,5.662819089188177486e+02
1.280000000000000061e-02,5.619229696360255275e+02
1.290000000000000001e-02,5.575202222851314673e+02
1.300000000000000114e-02,5.530732265877313694e+02
1.310000000000000053e-02,5.485815378405500269e+02
1.319999999999999993e-02,5.440447068709693212e+02
1.330000000000000106e-02,5.394622799921118030e+02
1.340000000000000045e-02,5.348337989574706626e+02
1.349999999999999985e-02,5.301588009150855214e+02
1.360000000000000098e-02,5.254368183612562007e+02
1.370000000000000037e-02,5.206673790937924196e+02
1.380000000000000150e-02,5.158500061647928305e+02
1.390000000000000090e-02,5.109842178329502076e+02
1.400000000000000029e-02,5.060695275153761372e+02
1.410000000000000142e-02,5.011054437389437339e+02
1.420000000000000082e-02,4.960914700911382056e+02
1.430000000000000021e-02,4.910271051704165757e+02
1.440000000000000134e-02,4.859118425360665583e+02
1.450000000000000074e-02,4.807451706575618573e+02
1.460000000000000013e-02,4.755265728634092852e+02
1.470000000000000126e-02,4.702555272894801419e+02
1.480000000000000066e-02,4.649315068268250570e+02
1.490000000000000005e-02,4.595539790689606434e+02
1.500000000000000118e-02,4.541224062586297805e+02
1.510000000000000057e-02,4.486362452340254663e+02
1.519999999999999997e-02,4.430949473744731790e+02
1.530000000000000110e-02,4.374979585455693041e+02
1.540000000000000049e-02,4.318447190437666450e+02
1.549999999999999989e-02,4.261346635404039489e+02
1.560000000000000102e-02,4.203672210251727392e+02
1.570000000000000215e-02,4.145418147490148613e+02
1.580000000000000154e-02,4.086578621664488651e+02
1.590000000000000094e-02,4.027147748773124363e+02
1.600000000000000033e-02,3.967119585679245120e+02
1.609999999999999973e-02,3.906488129516519052e+02
1.619999999999999912e-02,3.845247317088798127e+02
1.630000000000000199e-02,3.783391024263806912e+02
1.640000000000000138e-02,3.720913065360718974e+02
1.650000000000000078e-02,3.657807192531578266e+02
1.660000000000000017e-02,3.594067095136512648e+02
1.669999999999999957e-02,3.529686399112665072e+02
1.680000000000000243e-02,3.464658666336781607e+02
1.690000000000000183e-02,3.398977393981396062e+02
1.700000000000000122e-02,3.332636013864538427e+02
1.710000000000000062e-02,3.265627891792912578e+02
1.720000000000000001e-02,3.197946326898471057e+02
1.729999999999999941e-02,3.129584550968321537e+02
1.740000000000000227e-02,3.060535727767901335e+02
1.750000000000000167e-02,2.990792952357355148e+02
1.760000000000000106e-02,2.920349250401019958e+02
1.770000000000000046e-02,2.849197577469993803e+02
1.779999999999999985e-02,2.777330818337694609e+02
1.789999999999999925e-02,2.704741786268315309e+02
1.800000000000000211e-02,2.631423222298161591e+02
1.810000000000000150e-02,2.557367794509738417e+02
1.820000000000000090e-02,2.482568097298550924e+02
1.830000000000000029e-02,2.407016650632546373e+02
1.839999999999999969e-02,2.330705899304098523e+02
1.850000000000000255e-02,2.253628212174476744e+02
1.860000000000000195e-02,2.175775881410746422e+02
1.870000000000000134e-02,2.097141121714947190e+02
1.880000000000000074e-02,2.017716069545581945e+02
1.890000000000000013e-02,1.937492782331243859e+02
1.899999999999999953e-02,1.856463237676364599e+02
1.910000000000000239e-02,1.774619332558945359e+02
1.920000000000000179e-02,1.691952882520275523e+02
1.930000000000000118e-02,1.608455620846463887e+02
1.940000000000000058e-02,1.524119197741761127e+02
1.949999999999999997e-02,1.438935179493574594e+02
1.959999999999999937e-02,1.352895047629091323e+02
1.970000000000000223e-02,1.265990198063424685e+02
1.980000000000000163e-02,1.178211940239200004e+02
1.990000000000000102e-02,1.089551496257485894e+02
2.000000000000000042e-02,1.038480520568064236e+02
2.009999999999999981e-02,1.038711948482401795e+02
2.019999999999999921e-02,1.038943269328535592e+02
2.030000000000000207e-02,1.039174483205488144e+02
2.040000000000000147e-02,1.039405590212144972e+02
2.050000000000000086e-02,1.039636590447253894e+02
2.060000000000000026e-02,1.039867484009426732e+02
2.069999999999999965e-02,1.040098270997138314e+02
2.079999999999999905e-02,1.040328951508727329e+02
2.090000000000000191e-02,1.040559525642396039e+02
2.100000000000000130e-02,1.040789993496211423e+02
2.110000000000000070e-02,1.041020355168104743e+02
2.120000000000000009e-02,1.041250610755871833e+02
2.129999999999999949e-02,1.041480760357173665e+02
2.139999999999999888e-02,1.041710804069536209e+02
2.150000000000000175e-02,1.041940741990351000e+02
2.160000000000000114e-02,1.042170574216875423e+02
2.170000000000000054e-02,1.042400300846232568e+02
2.179999999999999993e-02,1.042629921975411662e+02
2.189999999999999933e-02,1.042859437701268774e+02
2.199999999999999872e-02,1.043088848120526251e+02
2.210000000000000159e-02,1.043318153329773423e+02
2.220000000000000098e-02,1.043547353425466895e+02
2.230000000000000038e-02,1.043776448503930681e+02
2.239999999999999977e-02,1.044005438661356635e+02
2.249999999999999917e-02,1.044234323993804026e+02
2.260000000000000203e-02,1.044463104597200811e+02
2.270000000000000143e-02,1.044691780567342647e+02
2.280000000000000082e-02,1.044920351999894734e+02
2.290000000000000022e-02,1.045148818990390254e+02
2.299999999999999961e-02,1.045377181634232073e+02
2.310000000000000248e-02,1.045605440026692037e+02
2.320000000000000187e-02,1.045833594262911959e+02
2.330000000000000127e-02,1.046061644437902913e+02
2.340000000000000066e-02,1.046289590646546515e+02
2.350000000000000006e-02,1.046517432983594631e+02
2.359999999999999945e-02,1.046745171543669528e+02
2.369999999999999885e-02,1.046972806421264011e+02
2.380000000000000171e-02,1.047200337710742133e+02
2.390000000000000110e-02,1.047427765506339341e+02
2.400000000000000050e-02,1.047655089902162473e+02
2.409999999999999989e-02,1.047882310992189616e+02
2.419999999999999929e-02,1.048109428870271387e+02
2.430000000000000215e-02,1.048336443630130361e+02
2.440000000000000155e-02,1.048563355365361360e+02
2.450000000000000094e-02,1.048790164169432018e+02
2.460000000000000034e-02,1.049016870135682638e+02
2.469999999999999973e-02,1.049243473357327048e+02
2.480000000000000260e-02,1.049469973927451889e+02
2.489999999999999852e-02,1.049696371939017467e+02
2.500000000000000139e-02,1.049922667484858039e+02
2.510000000000000078e-02,1.050148860657681951e+02
2.520000000000000018e-02,1.050374951550071501e+02
2.529999999999999957e-02,1.050600940254483646e+02
2.539999999999999897e-02,1.050826826863249863e+02
2.550000000000000183e-02,1.051052611468576856e+02
2.560000000000000123e-02,1.051278294162546132e+02
2.570000000000000062e-02,1.051503875037114568e+02
2.580000000000000002e-02,1.051729354184114982e+02
2.589999999999999941e-02,1.051954731695255703e+02
2.600000000000000228e-02,1.052180007662121426e+02
2.610000000000000167e-02,1.052405182176172502e+02
2.620000000000000107e-02,1.052630255328746500e+02
2.630000000000000046e-02,1.052855227211057070e+02
2.639999999999999986e-02,1.053080097914195363e+02
2.650000000000000272e-02,1.053304867529129183e+02
2.659999999999999865e-02,1.053529536146703833e+02
2.670000000000000151e-02,1.053754103857642548e+02
2.680000000000000090e-02,1.053978570752546204e+02
2.690000000000000030e-02,1.054202936921893325e+02
2.699999999999999969e-02,1.054427202456041073e+02
2.709999999999999909e-02,1.054651367445225105e+02
2.720000000000000195e-02,1.054875431979559579e+02
2.730000000000000135e-02,1.055099396149037716e+02
2.740000000000000074e-02,1.055323260043531803e+02
2.750000000000000014e-02,1.055547023752793336e+02
2.759999999999999953e-02,1.055770687366453728e+02
2.770000000000000240e-02,1.055994250974023601e+02
2.780000000000000179e-02,1.056217714664894061e+02
2.790000000000000119e-02,1.056441078528336277e+02
2.800000000000000058e-02,1.056664342653501620e+02
2.809999999999999998e-02,1.056887507129422374e+02
2.820000000000000284e-02,1.057110572045011452e+02
2.829999999999999877e-02,1.057333537489062962e+02
2.840000000000000163e-02,1.057556403550252355e+02
2.850000000000000103e-02,1.057779170317136135e+02
2.860000000000000042e-02,1.058001837878153140e+02
2.870000000000000329e-02,1.058224406321623405e+02
2.879999999999999921e-02,1.058446875735749586e+02
2.890000000000000208e-02,1.058669246208616670e+02
2.900000000000000147e-02,1.058891517828191695e+02
2.910000000000000087e-02,1.059113690682324886e+02
2.920000000000000026e-02,1.059335764858749229e+02
2.929999999999999966e-02,1.059557740445081038e+02
2.940000000000000252e-02,1.059779617528819671e+02
2.949999999999999845e-02,1.060001396197348100e+02
2.960000000000000131e-02,1.060223076537933622e+02
2.970000000000000070e-02,1.060444658637726718e+02
2.980000000000000010e-02,1.060666142583762479e+02
2.990000000000000296e-02,1.060887528462960461e+02
2.999999999999999889e-02,1.061108816362124543e+02
3.010000000000000175e-02,1.061330006367943781e+02
3.020000000000000115e-02,1.061551098566991698e+02
3.030000000000000054e-02,1.061772093045727559e+02
3.040000000000000341e-02,1.061992989890495664e+02
3.049999999999999933e-02,1.062213789187526061e+02
3.060000000000000220e-02,1.062434491022934679e+02
3.070000000000000159e-02,1.062655095482723340e+02
3.080000000000000099e-02,1.062875602652780174e+02
3.090000000000000038e-02,1.063096012618879769e+02
3.099999999999999978e-02,1.063316325466683026e+02
3.110000000000000264e-02,1.063536541281738010e+02
3.119999999999999857e-02,1.063756660149479814e+02
3.130000000000000143e-02,1.063976682155230407e+02
3.139999999999999736e-02,1.064196607384199496e+02
3.150000000000000022e-02,1.064416435921484236e+02
3.160000000000000309e-02,1.064636167852069661e+02
3.169999999999999901e-02,1.064855803260828679e+02
3.180000000000000188e-02,1.065075342232522502e+02
3.189999999999999780e-02,1.065294784851800927e+02
3.200000000000000067e-02,1.065514131203202055e+02
3.210000000000000353e-02,1.065733381371152859e+02
3.219999999999999946e-02,1.065952535439969324e+02
3.230000000000000232e-02,1.066171593493856591e+02
3.239999999999999825e-02,1.066390555616909239e+02
3.250000000000000111e-02,1.066609421893111431e+02
3.260000000000000397e-02,1.066828192406336768e+02
3.269999999999999990e-02,1.067046867240349428e+02
3.280000000000000276e-02,1.067265446478803170e+02
3.289999999999999869e-02,1.067483930205242189e+02
3.300000000000000155e-02,1.067702318503101537e+02
3.310000000000000442e-02,1.067920611455706563e+02
3.320000000000000034e-02,1.068138809146273900e+02
3.330000000000000321e-02,1.068356911657911041e+02
3.339999999999999913e-02,1.068574919073616769e+02
3.350000000000000200e-02,1.068792831476281577e+02
3.360000000000000486e-02,1.069010648948687390e+02
3.370000000000000079e-02,1.069228371573507985e+02
3.380000000000000365e-02,1.069445999433309282e+02
3.389999999999999958e-02,1.069663532610549623e+02
3.400000000000000244e-02,1.069880971187579348e+02
3.410000000000000531e-02,1.070098315246641789e+02
3.420000000000000123e-02,1.070315564869872844e+02
3.429999999999999716e-02,1.070532720139301404e+02
3.440000000000000002e-02,1.070749781136849776e+02
3.450000000000000289e-02,1.070966747944333264e+02
3.459999999999999881e-02,1.071183620643461012e+02
3.470000000000000168e-02,1.071400399315835585e+02
3.479999999999999760e-02,1.071617084042953820e+02
3.490000000000000047e-02,1.071833674906206539e+02
3.500000000000000333e-02,1.072050171986878411e+02
3.509999999999999926e-02,1.072266575366149226e+02
3.520000000000000212e-02,1.072482885125092906e+02
3.529999999999999805e-02,1.072699101344678496e+02
3.540000000000000091e-02,1.072915224105769738e+02
3.550000000000000377e-02,1.073131253489126067e+02
3.559999999999999970e-02,1.073347189575401757e+02
3.570000000000000256e-02,1.073563032445146916e+02
3.579999999999999849e-02,1.073778782178807347e+02
3.590000000000000135e-02,1.073994438856724685e+02
3.600000000000000422e-02,1.074210002559136683e+02
3.610000000000000014e-02,1.074425473366177357e+02
3.619999999999999607e-02,1.074640851357877267e+02
3.629999999999999893e-02,1.074856136614163375e+02
3.640000000000000180e-02,1.075071329214859759e+02
3.650000000000000466e-02,1.075286429239687180e+02
3.660000000000000059e-02,1.075501436768263659e+02
3.669999999999999651e-02,1.075716351880104611e+02
3.679999999999999938e-02,1.075931174654622993e+02
3.690000000000000224e-02,1.076145905171129300e+02
3.700000000000000511e-02,1.076360543508831995e+02
3.710000000000000103e-02,1.076575089746837364e+02
3.719999999999999696e-02,1.076789543964150226e+02
3.729999999999999982e-02,1.077003906239673796e+02
3.740000000000000269e-02,1.077218176652209536e+02
3.750000000000000555e-02,1.077432355280457585e+02
3.760000000000000148e-02,1.077646442203017614e+02
3.769999999999999740e-02,1.077860437498387824e+02
3.780000000000000027e-02,1.078074341244965666e+02
3.790000000000000313e-02,1.078288153521048400e+02
3.800000000000000600e-02,1.078501874404832392e+02
3.810000000000000192e-02,1.078715503974414247e+02
3.819999999999999785e-02,1.078929042307790098e+02
3.830000000000000071e-02,1.079142489482856604e+02
3.840000000000000357e-02,1.079355845577410378e+02
3.850000000000000644e-02,1.079569110669148699e+02
3.860000000000000236e-02,1.079782284835669230e+02
3.869999999999999829e-02,1.079995368154470583e+02
3.880000000000000115e-02,1.080208360702952319e+02
3.890000000000000402e-02,1.080421262558415236e+02
3.899999999999999994e-02,1.080634073798061081e+02
